#K-Path      Energy-Level
# NKPTS & NBANDS: 600  24
# Band-Index    1
   0.00000    -12.182401
   0.00821    -12.182183
   0.01642    -12.181527
   0.02463    -12.180431
   0.03284    -12.178896
   0.04105    -12.176921
   0.04926    -12.174509
   0.05746    -12.171656
   0.06567    -12.168365
   0.07388    -12.164634
   0.08209    -12.160465
   0.09030    -12.155858
   0.09851    -12.150813
   0.10672    -12.145330
   0.11493    -12.139410
   0.12314    -12.133053
   0.13135    -12.126260
   0.13956    -12.119030
   0.14777    -12.111365
   0.15598    -12.103265
   0.16418    -12.094730
   0.17239    -12.085761
   0.18060    -12.076358
   0.18881    -12.066523
   0.19702    -12.056255
   0.20523    -12.045560
   0.21344    -12.034435
   0.22165    -12.022880
   0.22986    -12.010895
   0.23807    -11.998482
   0.24628    -11.985642
   0.25449    -11.972375
   0.26270    -11.958682
   0.27090    -11.944564
   0.27911    -11.930022
   0.28732    -11.915058
   0.29553    -11.899671
   0.30374    -11.883864
   0.31195    -11.867637
   0.32016    -11.850992
   0.32837    -11.833930
   0.33658    -11.816453
   0.34479    -11.798561
   0.35300    -11.780256
   0.36121    -11.761539
   0.36942    -11.742407
   0.37763    -11.722872
   0.38583    -11.702931
   0.39404    -11.682585
   0.40225    -11.661839
   0.41046    -11.640693
   0.41867    -11.619147
   0.42688    -11.597204
   0.43509    -11.574866
   0.44330    -11.552133
   0.45151    -11.528991
   0.45972    -11.505477
   0.46793    -11.481586
   0.47614    -11.457302
   0.48435    -11.432636
   0.49255    -11.407591
   0.50076    -11.382168
   0.50897    -11.356372
   0.51718    -11.330204
   0.52539    -11.303667
   0.53360    -11.276766
   0.54181    -11.249503
   0.55002    -11.221880
   0.55823    -11.193903
   0.56644    -11.165573
   0.57465    -11.136896
   0.58286    -11.107873
   0.59107    -11.078496
   0.59927    -11.048750
   0.60748    -11.018723
   0.61569    -10.988368
   0.62390    -10.957690
   0.63211    -10.926692
   0.64032    -10.895381
   0.64853    -10.863760
   0.65674    -10.831835
   0.66495    -10.799613
   0.67316    -10.767097
   0.68137    -10.734294
   0.68958    -10.701210
   0.69779    -10.667851
   0.70599    -10.634224
   0.71420    -10.600335
   0.72241    -10.566193
   0.73062    -10.531761
   0.73883    -10.497131
   0.74704    -10.462268
   0.75525    -10.427181
   0.76346    -10.391879
   0.77167    -10.356370
   0.77988    -10.320664
   0.78809    -10.284769
   0.79630    -10.248698
   0.80451    -10.212461
   0.81271    -10.176068
   0.81271    -10.176068
   0.81627    -10.185166
   0.81982    -10.194225
   0.82338    -10.203243
   0.82693    -10.212218
   0.83049    -10.221153
   0.83404    -10.230045
   0.83760    -10.238892
   0.84115    -10.247695
   0.84471    -10.256451
   0.84826    -10.265160
   0.85182    -10.273822
   0.85537    -10.282436
   0.85893    -10.291000
   0.86248    -10.299514
   0.86604    -10.307976
   0.86959    -10.316387
   0.87314    -10.324745
   0.87670    -10.333050
   0.88025    -10.341301
   0.88381    -10.349497
   0.88736    -10.357638
   0.89092    -10.365742
   0.89447    -10.373770
   0.89803    -10.381741
   0.90158    -10.389654
   0.90514    -10.397509
   0.90869    -10.405305
   0.91225    -10.413042
   0.91580    -10.420718
   0.91936    -10.428334
   0.92291    -10.435889
   0.92647    -10.443382
   0.93002    -10.450813
   0.93357    -10.458181
   0.93713    -10.465487
   0.94068    -10.472729
   0.94424    -10.479907
   0.94779    -10.487022
   0.95135    -10.494071
   0.95490    -10.501055
   0.95846    -10.507974
   0.96201    -10.514827
   0.96557    -10.521612
   0.96912    -10.528332
   0.97268    -10.534984
   0.97623    -10.541570
   0.97979    -10.548087
   0.98334    -10.554537
   0.98690    -10.560918
   0.99045    -10.567230
   0.99400    -10.573474
   0.99756    -10.579648
   1.00111    -10.585752
   1.00467    -10.591787
   1.00822    -10.597751
   1.01178    -10.603645
   1.01533    -10.609468
   1.01889    -10.615220
   1.02244    -10.620900
   1.02600    -10.626517
   1.02955    -10.632054
   1.03311    -10.637519
   1.03666    -10.642912
   1.04022    -10.648227
   1.04377    -10.653474
   1.04733    -10.658649
   1.05088    -10.663750
   1.05443    -10.668778
   1.05799    -10.673732
   1.06154    -10.678612
   1.06510    -10.683419
   1.06865    -10.688151
   1.07221    -10.692808
   1.07576    -10.697385
   1.07932    -10.701893
   1.08287    -10.706327
   1.08643    -10.710685
   1.08998    -10.714967
   1.09354    -10.719197
   1.09709    -10.723329
   1.10065    -10.727360
   1.10420    -10.731339
   1.10776    -10.735243
   1.11131    -10.739074
   1.11486    -10.742824
   1.11842    -10.746499
   1.12197    -10.750096
   1.12553    -10.753617
   1.12908    -10.757060
   1.13264    -10.760426
   1.13619    -10.763716
   1.13975    -10.766927
   1.14330    -10.770062
   1.14686    -10.773118
   1.15041    -10.776097
   1.15397    -10.778998
   1.15752    -10.781821
   1.16108    -10.784566
   1.16463    -10.787233
   1.16463    -10.787233
   1.17529    -10.794764
   1.18596    -10.801587
   1.19662    -10.807700
   1.20729    -10.813100
   1.21795    -10.817787
   1.22862    -10.821754
   1.23928    -10.825007
   1.24994    -10.827539
   1.26061    -10.829349
   1.27127    -10.830437
   1.28194    -10.830799
   1.29260    -10.830436
   1.30326    -10.829346
   1.31393    -10.827528
   1.32459    -10.824982
   1.33526    -10.821705
   1.34592    -10.817698
   1.35658    -10.812960
   1.36725    -10.807488
   1.37791    -10.801290
   1.38858    -10.794356
   1.39924    -10.786689
   1.40991    -10.778290
   1.42057    -10.769157
   1.43123    -10.759292
   1.44190    -10.748694
   1.45256    -10.737363
   1.46323    -10.725294
   1.47389    -10.712529
   1.48455    -10.699001
   1.49522    -10.684750
   1.50588    -10.669760
   1.51655    -10.654040
   1.52721    -10.696349
   1.53787    -10.738328
   1.54854    -10.779955
   1.55920    -10.821196
   1.56987    -10.862040
   1.58053    -10.902458
   1.59120    -10.942454
   1.60186    -10.981962
   1.61252    -11.020986
   1.62319    -11.059519
   1.63385    -11.097537
   1.64452    -11.135027
   1.65518    -11.172002
   1.66584    -11.208397
   1.67651    -11.244223
   1.68717    -11.279477
   1.69784    -11.314144
   1.70850    -11.348230
   1.71916    -11.381696
   1.72983    -11.414548
   1.74049    -11.446778
   1.75116    -11.478380
   1.76182    -11.509346
   1.77249    -11.539669
   1.78315    -11.569347
   1.79381    -11.598367
   1.80448    -11.626726
   1.81514    -11.654421
   1.82581    -11.681446
   1.83647    -11.707811
   1.84713    -11.733486
   1.85780    -11.758477
   1.86846    -11.782775
   1.87913    -11.806397
   1.88979    -11.829314
   1.90045    -11.851532
   1.91112    -11.873046
   1.92178    -11.893857
   1.93245    -11.913961
   1.94311    -11.933354
   1.95378    -11.952034
   1.96444    -11.969998
   1.97510    -11.987245
   1.98577    -12.003772
   1.99643    -12.019577
   2.00710    -12.034658
   2.01776    -12.049015
   2.02842    -12.062648
   2.03909    -12.075555
   2.04975    -12.087731
   2.06042    -12.099176
   2.07108    -12.109889
   2.08174    -12.119867
   2.09241    -12.129110
   2.10307    -12.137617
   2.11374    -12.145386
   2.12440    -12.152418
   2.13506    -12.158711
   2.14573    -12.164263
   2.15639    -12.169077
   2.16706    -12.173151
   2.17772    -12.176483
   2.18839    -12.179074
   2.19905    -12.180924
   2.20971    -12.182033
   2.22038    -12.182401
   2.22038    -12.182401
   2.23043    -12.182074
   2.24049    -12.181089
   2.25054    -12.179444
   2.26059    -12.177141
   2.27065    -12.174179
   2.28070    -12.170560
   2.29076    -12.166282
   2.30081    -12.161346
   2.31087    -12.155753
   2.32092    -12.149503
   2.33097    -12.142597
   2.34103    -12.135037
   2.35108    -12.126822
   2.36114    -12.117954
   2.37119    -12.108434
   2.38125    -12.098263
   2.39130    -12.087442
   2.40135    -12.075973
   2.41141    -12.063856
   2.42146    -12.051096
   2.43152    -12.037696
   2.44157    -12.023654
   2.45163    -12.008971
   2.46168    -11.993649
   2.47173    -11.977691
   2.48179    -11.961099
   2.49184    -11.943874
   2.50190    -11.926020
   2.51195    -11.907538
   2.52200    -11.888432
   2.53206    -11.868704
   2.54211    -11.848366
   2.55217    -11.827405
   2.56222    -11.805833
   2.57228    -11.783643
   2.58233    -11.760858
   2.59238    -11.737472
   2.60244    -11.713492
   2.61249    -11.688920
   2.62255    -11.663765
   2.63260    -11.638021
   2.64266    -11.611714
   2.65271    -11.584837
   2.66276    -11.557396
   2.67282    -11.529399
   2.68287    -11.500854
   2.69293    -11.471765
   2.70298    -11.442142
   2.71303    -11.411972
   2.72309    -11.381306
   2.73314    -11.350133
   2.74320    -11.318463
   2.75325    -11.286307
   2.76331    -11.253678
   2.77336    -11.220586
   2.78341    -11.187047
   2.79347    -11.153075
   2.80352    -11.118685
   2.81358    -11.083894
   2.82363    -11.048725
   2.83369    -11.013115
   2.84374    -10.977242
   2.85379    -10.941048
   2.86385    -10.904558
   2.87390    -10.867799
   2.88396    -10.830799
   2.89401    -10.793589
   2.90407    -10.756202
   2.91412    -10.718675
   2.92417    -10.681046
   2.93423    -10.643359
   2.94428    -10.605659
   2.95434    -10.568007
   2.96439    -10.530439
   2.97444    -10.493023
   2.98450    -10.455824
   2.99455    -10.418911
   3.00461    -10.382362
   3.01466    -10.346278
   3.02472    -10.310716
   3.03477    -10.275783
   3.04482    -10.241594
   3.05488    -10.208244
   3.06493    -10.175860
   3.07499    -10.144567
   3.08504    -10.114499
   3.09510    -10.085755
   3.10515    -10.058566
   3.11520    -10.033039
   3.12526    -10.009329
   3.13531     -9.987589
   3.14537     -9.967970
   3.15542     -9.950644
   3.16547     -9.935698
   3.17553     -9.923282
   3.18558     -9.913504
   3.19564     -9.906452
   3.20569     -9.902192
   3.21575     -9.900767
   3.21575     -9.900767
   3.21985     -9.900907
   3.22396     -9.901328
   3.22806     -9.902027
   3.23216     -9.903006
   3.23627     -9.904261
   3.24037     -9.905792
   3.24448     -9.907597
   3.24858     -9.909674
   3.25269     -9.912020
   3.25679     -9.914633
   3.26090     -9.917509
   3.26500     -9.920645
   3.26911     -9.924039
   3.27321     -9.927685
   3.27732     -9.931572
   3.28142     -9.935713
   3.28552     -9.940094
   3.28963     -9.944711
   3.29373     -9.949559
   3.29784     -9.954633
   3.30194     -9.959929
   3.30605     -9.965452
   3.31015     -9.971174
   3.31426     -9.977086
   3.31836     -9.983214
   3.32247     -9.989536
   3.32657     -9.996047
   3.33068    -10.002741
   3.33478    -10.009612
   3.33888    -10.016656
   3.34299    -10.023865
   3.34709    -10.031235
   3.35120    -10.038759
   3.35530    -10.046432
   3.35941    -10.054249
   3.36351    -10.062204
   3.36762    -10.070291
   3.37172    -10.078506
   3.37583    -10.086841
   3.37993    -10.095293
   3.38404    -10.103856
   3.38814    -10.112524
   3.39224    -10.121293
   3.39635    -10.130157
   3.40045    -10.139112
   3.40456    -10.148152
   3.40866    -10.157273
   3.41277    -10.166486
   3.41687    -10.175755
   3.42098    -10.185091
   3.42508    -10.194486
   3.42919    -10.203943
   3.43329    -10.213449
   3.43740    -10.223010
   3.44150    -10.232616
   3.44560    -10.242264
   3.44971    -10.251951
   3.45381    -10.261672
   3.45792    -10.271423
   3.46202    -10.281202
   3.46613    -10.291004
   3.47023    -10.300804
   3.47434    -10.310643
   3.47844    -10.320496
   3.48255    -10.330359
   3.48665    -10.340231
   3.49076    -10.350106
   3.49486    -10.359983
   3.49896    -10.369858
   3.50307    -10.379729
   3.50717    -10.389593
   3.51128    -10.399448
   3.51538    -10.409290
   3.51949    -10.419117
   3.52359    -10.428928
   3.52770    -10.438719
   3.53180    -10.448488
   3.53591    -10.458233
   3.54001    -10.467952
   3.54412    -10.477643
   3.54822    -10.487304
   3.55232    -10.496932
   3.55643    -10.506526
   3.56053    -10.516103
   3.56464    -10.525623
   3.56874    -10.535104
   3.57285    -10.544543
   3.57695    -10.553939
   3.58106    -10.563290
   3.58516    -10.572595
   3.58927    -10.581852
   3.59337    -10.591059
   3.59748    -10.600216
   3.60158    -10.609320
   3.60568    -10.618371
   3.60979    -10.627397
   3.61389    -10.636336
   3.61800    -10.645218
   3.62210    -10.654040
   3.62210    -10.654040
   3.62621    -10.653989
   3.63031    -10.653836
   3.63442    -10.653581
   3.63852    -10.653224
   3.64263    -10.652763
   3.64673    -10.652200
   3.65084    -10.651525
   3.65494    -10.650760
   3.65904    -10.649894
   3.66315    -10.648925
   3.66725    -10.647851
   3.67136    -10.646679
   3.67546    -10.645405
   3.67957    -10.644030
   3.68367    -10.642553
   3.68778    -10.640974
   3.69188    -10.639294
   3.69599    -10.637513
   3.70009    -10.635631
   3.70420    -10.633635
   3.70830    -10.631550
   3.71241    -10.629365
   3.71651    -10.627078
   3.72061    -10.624687
   3.72472    -10.622199
   3.72882    -10.619610
   3.73293    -10.616921
   3.73703    -10.614131
   3.74114    -10.611242
   3.74524    -10.608240
   3.74935    -10.605150
   3.75345    -10.601961
   3.75756    -10.598672
   3.76166    -10.595283
   3.76577    -10.591795
   3.76987    -10.588214
   3.77397    -10.584529
   3.77808    -10.580744
   3.78218    -10.576861
   3.78629    -10.572880
   3.79039    -10.568812
   3.79450    -10.564635
   3.79860    -10.560360
   3.80271    -10.555987
   3.80681    -10.551518
   3.81092    -10.546954
   3.81502    -10.542291
   3.81913    -10.537531
   3.82323    -10.532675
   3.82733    -10.527723
   3.83144    -10.522676
   3.83554    -10.517533
   3.83965    -10.512295
   3.84375    -10.506963
   3.84786    -10.501536
   3.85196    -10.496015
   3.85607    -10.490401
   3.86017    -10.484693
   3.86428    -10.478891
   3.86838    -10.472997
   3.87249    -10.467011
   3.87659    -10.460933
   3.88069    -10.454759
   3.88480    -10.448498
   3.88890    -10.442146
   3.89301    -10.435704
   3.89711    -10.429172
   3.90122    -10.422550
   3.90532    -10.415839
   3.90943    -10.409040
   3.91353    -10.402144
   3.91764    -10.395170
   3.92174    -10.388108
   3.92585    -10.380960
   3.92995    -10.373726
   3.93405    -10.366407
   3.93816    -10.359003
   3.94226    -10.351514
   3.94637    -10.343943
   3.95047    -10.336288
   3.95458    -10.328551
   3.95868    -10.320723
   3.96279    -10.312823
   3.96689    -10.304843
   3.97100    -10.296784
   3.97510    -10.288645
   3.97921    -10.280429
   3.98331    -10.272135
   3.98741    -10.263767
   3.99152    -10.255322
   3.99562    -10.246802
   3.99973    -10.238209
   4.00383    -10.229542
   4.00794    -10.220804
   4.01204    -10.211997
   4.01615    -10.203117
   4.02025    -10.194170
   4.02436    -10.185153
   4.02846    -10.176068
 
 
# Band-Index    2
   4.02846    -10.176068
   4.02436    -10.185152
   4.02025    -10.194169
   4.01615    -10.203116
   4.01204    -10.211996
   4.00794    -10.220803
   4.00383    -10.229542
   3.99973    -10.238208
   3.99562    -10.246802
   3.99152    -10.255321
   3.98741    -10.263766
   3.98331    -10.272135
   3.97921    -10.280429
   3.97510    -10.288645
   3.97100    -10.296783
   3.96689    -10.304843
   3.96279    -10.312823
   3.95868    -10.320722
   3.95458    -10.328550
   3.95047    -10.336287
   3.94637    -10.343942
   3.94226    -10.351514
   3.93816    -10.359003
   3.93405    -10.366406
   3.92995    -10.373726
   3.92585    -10.380960
   3.92174    -10.388108
   3.91764    -10.395169
   3.91353    -10.402144
   3.90943    -10.409040
   3.90532    -10.415839
   3.90122    -10.422550
   3.89711    -10.429171
   3.89301    -10.435703
   3.88890    -10.442145
   3.88480    -10.448497
   3.88069    -10.454758
   3.87659    -10.460932
   3.87249    -10.467011
   3.86838    -10.472997
   3.86428    -10.478891
   3.86017    -10.484692
   3.85607    -10.490400
   3.85196    -10.496014
   3.84786    -10.501535
   3.84375    -10.506962
   3.83965    -10.512295
   3.83554    -10.517533
   3.83144    -10.522675
   3.82733    -10.527723
   3.82323    -10.532675
   3.81913    -10.537531
   3.81502    -10.542290
   3.81092    -10.546954
   3.80681    -10.551517
   3.80271    -10.555987
   3.79860    -10.560359
   3.79450    -10.564634
   3.79039    -10.568811
   3.78629    -10.572880
   3.78218    -10.576861
   3.77808    -10.580744
   3.77397    -10.584528
   3.76987    -10.588214
   3.76577    -10.591795
   3.76166    -10.595283
   3.75756    -10.598671
   3.75345    -10.601960
   3.74935    -10.605150
   3.74524    -10.608240
   3.74114    -10.611241
   3.73703    -10.614131
   3.73293    -10.616921
   3.72882    -10.619610
   3.72472    -10.622199
   3.72061    -10.624687
   3.71651    -10.627077
   3.71241    -10.629364
   3.70830    -10.631550
   3.70420    -10.633635
   3.70009    -10.635630
   3.69599    -10.637513
   3.69188    -10.639294
   3.68778    -10.640974
   3.68367    -10.642552
   3.67957    -10.644029
   3.67546    -10.645405
   3.67136    -10.646678
   3.66725    -10.647850
   3.66315    -10.648925
   3.65904    -10.649893
   3.65494    -10.650760
   3.65084    -10.651525
   3.64673    -10.652200
   3.64263    -10.652762
   3.63852    -10.653223
   3.63442    -10.653580
   3.63031    -10.653835
   3.62621    -10.653989
   3.62210    -10.654040
   3.62210    -10.654040
   3.61800    -10.645217
   3.61389    -10.636336
   3.60979    -10.627397
   3.60568    -10.618370
   3.60158    -10.609320
   3.59748    -10.600216
   3.59337    -10.591059
   3.58927    -10.581851
   3.58516    -10.572595
   3.58106    -10.563290
   3.57695    -10.553939
   3.57285    -10.544543
   3.56874    -10.535104
   3.56464    -10.525623
   3.56053    -10.516103
   3.55643    -10.506526
   3.55232    -10.496932
   3.54822    -10.487303
   3.54412    -10.477643
   3.54001    -10.467952
   3.53591    -10.458233
   3.53180    -10.448488
   3.52770    -10.438718
   3.52359    -10.428927
   3.51949    -10.419117
   3.51538    -10.409290
   3.51128    -10.399447
   3.50717    -10.389593
   3.50307    -10.379729
   3.49896    -10.369858
   3.49486    -10.359983
   3.49076    -10.350106
   3.48665    -10.340230
   3.48255    -10.330359
   3.47844    -10.320495
   3.47434    -10.310643
   3.47023    -10.300804
   3.46613    -10.291003
   3.46202    -10.281201
   3.45792    -10.271423
   3.45381    -10.261672
   3.44971    -10.251951
   3.44560    -10.242264
   3.44150    -10.232616
   3.43740    -10.223009
   3.43329    -10.213449
   3.42919    -10.203943
   3.42508    -10.194486
   3.42098    -10.185090
   3.41687    -10.175754
   3.41277    -10.166486
   3.40866    -10.157273
   3.40456    -10.148151
   3.40045    -10.139111
   3.39635    -10.130156
   3.39224    -10.121292
   3.38814    -10.112523
   3.38404    -10.103855
   3.37993    -10.095293
   3.37583    -10.086841
   3.37172    -10.078505
   3.36762    -10.070291
   3.36351    -10.062204
   3.35941    -10.054249
   3.35530    -10.046432
   3.35120    -10.038758
   3.34709    -10.031234
   3.34299    -10.023864
   3.33888    -10.016655
   3.33478    -10.009612
   3.33068    -10.002741
   3.32657     -9.996047
   3.32247     -9.989536
   3.31836     -9.983213
   3.31426     -9.977085
   3.31015     -9.971174
   3.30605     -9.965451
   3.30194     -9.959928
   3.29784     -9.954633
   3.29373     -9.949558
   3.28963     -9.944710
   3.28552     -9.940093
   3.28142     -9.935712
   3.27732     -9.931572
   3.27321     -9.927685
   3.26911     -9.924039
   3.26500     -9.920645
   3.26090     -9.917508
   3.25679     -9.914632
   3.25269     -9.912020
   3.24858     -9.909674
   3.24448     -9.907597
   3.24037     -9.905792
   3.23627     -9.904261
   3.23216     -9.903005
